1.000E-02 = radius(micron) ionized PAH/graphitic solid             
w(micron)   Q_ext     Q_abs     Q_sca    g=<cos>
1.000E+03 1.549E-06 1.549E-06 4.153E-17 0.00E+00
9.886E+02 1.585E-06 1.585E-06 4.349E-17 0.00E+00
9.772E+02 1.621E-06 1.621E-06 4.554E-17 0.00E+00
9.661E+02 1.658E-06 1.658E-06 4.768E-17 0.00E+00
9.550E+02 1.696E-06 1.696E-06 4.993E-17 0.00E+00
9.441E+02 1.735E-06 1.735E-06 5.228E-17 0.00E+00
9.333E+02 1.775E-06 1.775E-06 5.474E-17 0.00E+00
9.226E+02 1.816E-06 1.816E-06 5.732E-17 0.00E+00
9.120E+02 1.857E-06 1.857E-06 6.002E-17 0.00E+00
9.016E+02 1.900E-06 1.900E-06 6.285E-17 0.00E+00
8.913E+02 1.943E-06 1.943E-06 6.581E-17 0.00E+00
8.810E+02 1.988E-06 1.988E-06 6.891E-17 0.00E+00
8.710E+02 2.033E-06 2.033E-06 7.216E-17 0.00E+00
8.610E+02 2.080E-06 2.080E-06 7.556E-17 0.00E+00
8.511E+02 2.127E-06 2.127E-06 7.911E-17 0.00E+00
8.414E+02 2.176E-06 2.176E-06 8.284E-17 0.00E+00
8.318E+02 2.226E-06 2.226E-06 8.674E-17 0.00E+00
8.222E+02 2.277E-06 2.277E-06 9.083E-17 0.00E+00
8.128E+02 2.329E-06 2.329E-06 9.511E-17 0.00E+00
8.035E+02 2.382E-06 2.382E-06 9.959E-17 0.00E+00
7.943E+02 2.436E-06 2.436E-06 1.043E-16 0.00E+00
7.852E+02 2.492E-06 2.492E-06 1.092E-16 0.00E+00
7.762E+02 2.549E-06 2.549E-06 1.143E-16 0.00E+00
7.674E+02 2.607E-06 2.607E-06 1.197E-16 0.00E+00
7.586E+02 2.666E-06 2.666E-06 1.254E-16 0.00E+00
7.499E+02 2.727E-06 2.727E-06 1.313E-16 0.00E+00
7.413E+02 2.789E-06 2.789E-06 1.374E-16 0.00E+00
7.328E+02 2.853E-06 2.853E-06 1.439E-16 0.00E+00
7.244E+02 2.918E-06 2.918E-06 1.507E-16 0.00E+00
7.161E+02 2.984E-06 2.984E-06 1.578E-16 0.00E+00
7.079E+02 3.052E-06 3.052E-06 1.652E-16 0.00E+00
6.998E+02 3.121E-06 3.121E-06 1.730E-16 0.00E+00
6.918E+02 3.192E-06 3.192E-06 1.812E-16 0.00E+00
6.839E+02 3.265E-06 3.265E-06 1.897E-16 0.00E+00
6.761E+02 3.339E-06 3.339E-06 1.986E-16 0.00E+00
6.683E+02 3.415E-06 3.415E-06 2.080E-16 0.00E+00
6.607E+02 3.492E-06 3.492E-06 2.178E-16 0.00E+00
6.531E+02 3.571E-06 3.571E-06 2.280E-16 0.00E+00
6.457E+02 3.652E-06 3.652E-06 2.388E-16 0.00E+00
6.383E+02 3.735E-06 3.735E-06 2.500E-16 0.00E+00
6.310E+02 3.820E-06 3.820E-06 2.618E-16 0.00E+00
6.237E+02 3.906E-06 3.906E-06 2.741E-16 0.00E+00
6.166E+02 3.995E-06 3.995E-06 2.870E-16 0.00E+00
6.095E+02 4.085E-06 4.085E-06 3.006E-16 0.00E+00
6.026E+02 4.177E-06 4.177E-06 3.147E-16 0.00E+00
5.957E+02 4.272E-06 4.272E-06 3.295E-16 0.00E+00
5.888E+02 4.368E-06 4.368E-06 3.451E-16 0.00E+00
5.821E+02 4.467E-06 4.467E-06 3.613E-16 0.00E+00
5.754E+02 4.568E-06 4.568E-06 3.783E-16 0.00E+00
5.689E+02 4.671E-06 4.671E-06 3.961E-16 0.00E+00
5.623E+02 4.777E-06 4.777E-06 4.148E-16 0.00E+00
5.559E+02 4.884E-06 4.884E-06 4.343E-16 0.00E+00
5.495E+02 4.995E-06 4.995E-06 4.548E-16 0.00E+00
5.433E+02 5.107E-06 5.107E-06 4.762E-16 0.00E+00
5.370E+02 5.222E-06 5.222E-06 4.986E-16 0.00E+00
5.309E+02 5.340E-06 5.340E-06 5.221E-16 0.00E+00
5.248E+02 5.460E-06 5.460E-06 5.467E-16 0.00E+00
5.188E+02 5.583E-06 5.583E-06 5.724E-16 0.00E+00
5.129E+02 5.709E-06 5.709E-06 5.994E-16 0.00E+00
5.070E+02 5.837E-06 5.837E-06 6.276E-16 0.00E+00
5.012E+02 5.968E-06 5.968E-06 6.571E-16 0.00E+00
4.955E+02 6.102E-06 6.102E-06 6.881E-16 0.00E+00
4.898E+02 6.239E-06 6.239E-06 7.205E-16 0.00E+00
4.842E+02 6.380E-06 6.380E-06 7.544E-16 0.00E+00
4.786E+02 6.523E-06 6.523E-06 7.899E-16 0.00E+00
4.732E+02 6.669E-06 6.669E-06 8.271E-16 0.00E+00
4.677E+02 6.819E-06 6.819E-06 8.661E-16 0.00E+00
4.624E+02 6.972E-06 6.972E-06 9.069E-16 0.00E+00
4.571E+02 7.128E-06 7.128E-06 9.496E-16 0.00E+00
4.519E+02 7.288E-06 7.288E-06 9.943E-16 0.00E+00
4.467E+02 7.451E-06 7.451E-06 1.041E-15 0.00E+00
4.416E+02 7.618E-06 7.618E-06 1.090E-15 0.00E+00
4.365E+02 7.788E-06 7.788E-06 1.141E-15 0.00E+00
4.315E+02 7.963E-06 7.963E-06 1.195E-15 0.00E+00
4.266E+02 8.141E-06 8.141E-06 1.251E-15 0.00E+00
4.217E+02 8.323E-06 8.323E-06 1.310E-15 0.00E+00
4.169E+02 8.509E-06 8.509E-06 1.372E-15 0.00E+00
4.121E+02 8.699E-06 8.699E-06 1.437E-15 0.00E+00
4.074E+02 8.894E-06 8.894E-06 1.504E-15 0.00E+00
4.027E+02 9.092E-06 9.092E-06 1.575E-15 0.00E+00
3.981E+02 9.296E-06 9.296E-06 1.649E-15 0.00E+00
3.936E+02 9.503E-06 9.503E-06 1.727E-15 0.00E+00
3.890E+02 9.716E-06 9.716E-06 1.808E-15 0.00E+00
3.846E+02 9.933E-06 9.933E-06 1.893E-15 0.00E+00
3.802E+02 1.015E-05 1.015E-05 1.982E-15 0.00E+00
3.758E+02 1.038E-05 1.038E-05 2.076E-15 0.00E+00
3.715E+02 1.061E-05 1.061E-05 2.173E-15 0.00E+00
3.673E+02 1.085E-05 1.085E-05 2.276E-15 0.00E+00
3.631E+02 1.109E-05 1.109E-05 2.383E-15 0.00E+00
3.589E+02 1.134E-05 1.134E-05 2.495E-15 0.00E+00
3.548E+02 1.159E-05 1.159E-05 2.613E-15 0.00E+00
3.508E+02 1.185E-05 1.185E-05 2.735E-15 0.00E+00
3.467E+02 1.212E-05 1.212E-05 2.864E-15 0.00E+00
3.428E+02 1.239E-05 1.239E-05 2.999E-15 0.00E+00
3.388E+02 1.266E-05 1.266E-05 3.140E-15 0.00E+00
3.350E+02 1.294E-05 1.294E-05 3.288E-15 0.00E+00
3.311E+02 1.323E-05 1.323E-05 3.443E-15 0.00E+00
3.273E+02 1.353E-05 1.353E-05 3.605E-15 0.00E+00
3.236E+02 1.383E-05 1.383E-05 3.775E-15 0.00E+00
3.199E+02 1.414E-05 1.414E-05 3.952E-15 0.00E+00
3.162E+02 1.445E-05 1.445E-05 4.138E-15 0.00E+00
3.126E+02 1.478E-05 1.478E-05 4.333E-15 0.00E+00
3.090E+02 1.511E-05 1.511E-05 4.537E-15 0.00E+00
3.055E+02 1.544E-05 1.544E-05 4.751E-15 0.00E+00
3.020E+02 1.579E-05 1.579E-05 4.974E-15 0.00E+00
2.985E+02 1.614E-05 1.614E-05 5.208E-15 0.00E+00
2.951E+02 1.650E-05 1.650E-05 5.454E-15 0.00E+00
2.917E+02 1.687E-05 1.687E-05 5.710E-15 0.00E+00
2.884E+02 1.724E-05 1.724E-05 5.979E-15 0.00E+00
2.851E+02 1.763E-05 1.763E-05 6.260E-15 0.00E+00
2.818E+02 1.802E-05 1.802E-05 6.555E-15 0.00E+00
2.786E+02 1.843E-05 1.843E-05 6.864E-15 0.00E+00
2.754E+02 1.884E-05 1.884E-05 7.187E-15 0.00E+00
2.723E+02 1.926E-05 1.926E-05 7.525E-15 0.00E+00
2.692E+02 1.969E-05 1.969E-05 7.879E-15 0.00E+00
2.661E+02 2.013E-05 2.013E-05 8.250E-15 0.00E+00
2.630E+02 2.058E-05 2.058E-05 8.638E-15 0.00E+00
2.600E+02 2.104E-05 2.104E-05 9.045E-15 0.00E+00
2.570E+02 2.151E-05 2.151E-05 9.470E-15 0.00E+00
2.541E+02 2.199E-05 2.199E-05 9.916E-15 0.00E+00
2.512E+02 2.248E-05 2.248E-05 1.038E-14 0.00E+00
2.483E+02 2.299E-05 2.299E-05 1.087E-14 0.00E+00
2.455E+02 2.350E-05 2.350E-05 1.138E-14 0.00E+00
2.427E+02 2.403E-05 2.403E-05 1.192E-14 0.00E+00
2.399E+02 2.457E-05 2.457E-05 1.248E-14 0.00E+00
2.371E+02 2.512E-05 2.512E-05 1.307E-14 0.00E+00
2.344E+02 2.568E-05 2.568E-05 1.368E-14 0.00E+00
2.317E+02 2.626E-05 2.626E-05 1.433E-14 0.00E+00
2.291E+02 2.685E-05 2.685E-05 1.500E-14 0.00E+00
2.265E+02 2.745E-05 2.745E-05 1.571E-14 0.00E+00
2.239E+02 2.807E-05 2.807E-05 1.645E-14 0.00E+00
2.213E+02 2.870E-05 2.870E-05 1.722E-14 0.00E+00
2.188E+02 2.935E-05 2.935E-05 1.803E-14 0.00E+00
2.163E+02 3.001E-05 3.001E-05 1.888E-14 0.00E+00
2.138E+02 3.068E-05 3.068E-05 1.977E-14 0.00E+00
2.113E+02 3.138E-05 3.138E-05 2.070E-14 0.00E+00
2.089E+02 3.208E-05 3.208E-05 2.167E-14 0.00E+00
2.065E+02 3.281E-05 3.281E-05 2.269E-14 0.00E+00
2.042E+02 3.355E-05 3.355E-05 2.376E-14 0.00E+00
2.018E+02 3.431E-05 3.431E-05 2.488E-14 0.00E+00
1.995E+02 3.508E-05 3.508E-05 2.605E-14 0.00E+00
1.972E+02 3.588E-05 3.588E-05 2.727E-14 0.00E+00
1.950E+02 3.669E-05 3.669E-05 2.856E-14 0.00E+00
1.928E+02 3.752E-05 3.752E-05 2.990E-14 0.00E+00
1.905E+02 3.837E-05 3.837E-05 3.131E-14 0.00E+00
1.884E+02 3.924E-05 3.924E-05 3.278E-14 0.00E+00
1.862E+02 4.013E-05 4.013E-05 3.432E-14 0.00E+00
1.841E+02 4.104E-05 4.104E-05 3.594E-14 0.00E+00
1.820E+02 4.197E-05 4.197E-05 3.763E-14 0.00E+00
1.799E+02 4.293E-05 4.293E-05 3.940E-14 0.00E+00
1.778E+02 4.391E-05 4.391E-05 4.125E-14 0.00E+00
1.758E+02 4.491E-05 4.491E-05 4.319E-14 0.00E+00
1.738E+02 4.593E-05 4.593E-05 4.523E-14 0.00E+00
1.718E+02 4.698E-05 4.698E-05 4.735E-14 0.00E+00
1.698E+02 4.805E-05 4.805E-05 4.958E-14 0.00E+00
1.679E+02 4.915E-05 4.915E-05 5.191E-14 0.00E+00
1.660E+02 5.027E-05 5.027E-05 5.436E-14 0.00E+00
1.641E+02 5.142E-05 5.142E-05 5.691E-14 0.00E+00
1.622E+02 5.260E-05 5.260E-05 5.959E-14 0.00E+00
1.603E+02 5.381E-05 5.381E-05 6.239E-14 0.00E+00
1.585E+02 5.504E-05 5.504E-05 6.533E-14 0.00E+00
1.567E+02 5.631E-05 5.631E-05 6.840E-14 0.00E+00
1.549E+02 5.760E-05 5.760E-05 7.162E-14 0.00E+00
1.531E+02 5.893E-05 5.893E-05 7.499E-14 0.00E+00
1.514E+02 6.028E-05 6.028E-05 7.852E-14 0.00E+00
1.496E+02 6.167E-05 6.167E-05 8.221E-14 0.00E+00
1.479E+02 6.310E-05 6.310E-05 8.608E-14 0.00E+00
1.462E+02 6.455E-05 6.455E-05 9.012E-14 0.00E+00
1.445E+02 6.604E-05 6.604E-05 9.436E-14 0.00E+00
1.429E+02 6.757E-05 6.757E-05 9.880E-14 0.00E+00
1.413E+02 6.914E-05 6.914E-05 1.034E-13 0.00E+00
1.396E+02 7.074E-05 7.074E-05 1.083E-13 0.00E+00
1.380E+02 7.238E-05 7.238E-05 1.134E-13 0.00E+00
1.365E+02 7.406E-05 7.406E-05 1.187E-13 0.00E+00
1.349E+02 7.578E-05 7.578E-05 1.243E-13 0.00E+00
1.334E+02 7.755E-05 7.755E-05 1.302E-13 0.00E+00
1.318E+02 7.935E-05 7.935E-05 1.363E-13 0.00E+00
1.303E+02 8.121E-05 8.121E-05 1.427E-13 0.00E+00
1.288E+02 8.310E-05 8.310E-05 1.494E-13 0.00E+00
1.274E+02 8.505E-05 8.505E-05 1.564E-13 0.00E+00
1.259E+02 8.704E-05 8.704E-05 1.638E-13 0.00E+00
1.245E+02 8.907E-05 8.907E-05 1.715E-13 0.00E+00
1.230E+02 9.116E-05 9.116E-05 1.795E-13 0.00E+00
1.216E+02 9.331E-05 9.331E-05 1.879E-13 0.00E+00
1.202E+02 9.550E-05 9.550E-05 1.968E-13 0.00E+00
1.189E+02 9.775E-05 9.775E-05 2.060E-13 0.00E+00
1.175E+02 1.001E-04 1.001E-04 2.157E-13 0.00E+00
1.161E+02 1.024E-04 1.024E-04 2.258E-13 0.00E+00
1.148E+02 1.048E-04 1.048E-04 2.364E-13 0.00E+00
1.135E+02 1.073E-04 1.073E-04 2.475E-13 0.00E+00
1.122E+02 1.098E-04 1.098E-04 2.591E-13 0.00E+00
1.109E+02 1.124E-04 1.124E-04 2.713E-13 0.00E+00
1.096E+02 1.151E-04 1.151E-04 2.840E-13 0.00E+00
1.084E+02 1.178E-04 1.178E-04 2.974E-13 0.00E+00
1.072E+02 1.206E-04 1.206E-04 3.113E-13 0.00E+00
1.059E+02 1.235E-04 1.235E-04 3.259E-13 0.00E+00
1.047E+02 1.264E-04 1.264E-04 3.412E-13 0.00E+00
1.035E+02 1.294E-04 1.294E-04 3.572E-13 0.00E+00
1.023E+02 1.325E-04 1.325E-04 3.739E-13 0.00E+00
1.012E+02 1.357E-04 1.357E-04 3.915E-13 0.00E+00
1.000E+02 1.389E-04 1.389E-04 4.098E-13 0.00E+00
9.886E+01 1.422E-04 1.422E-04 4.290E-13 0.00E+00
9.772E+01 1.456E-04 1.456E-04 4.491E-13 0.00E+00
9.661E+01 1.490E-04 1.490E-04 4.701E-13 0.00E+00
9.550E+01 1.526E-04 1.526E-04 4.921E-13 0.00E+00
9.441E+01 1.562E-04 1.562E-04 5.151E-13 0.00E+00
9.333E+01 1.599E-04 1.599E-04 5.392E-13 0.00E+00
9.226E+01 1.637E-04 1.637E-04 5.644E-13 0.00E+00
9.120E+01 1.676E-04 1.676E-04 5.908E-13 0.00E+00
9.016E+01 1.716E-04 1.716E-04 6.184E-13 0.00E+00
8.913E+01 1.756E-04 1.756E-04 6.473E-13 0.00E+00
8.810E+01 1.798E-04 1.798E-04 6.775E-13 0.00E+00
8.710E+01 1.840E-04 1.840E-04 7.091E-13 0.00E+00
8.610E+01 1.884E-04 1.884E-04 7.422E-13 0.00E+00
8.511E+01 1.929E-04 1.929E-04 7.769E-13 0.00E+00
8.414E+01 1.974E-04 1.974E-04 8.131E-13 0.00E+00
8.318E+01 2.021E-04 2.021E-04 8.510E-13 0.00E+00
8.222E+01 2.069E-04 2.069E-04 8.907E-13 0.00E+00
8.128E+01 2.117E-04 2.117E-04 9.322E-13 0.00E+00
8.035E+01 2.167E-04 2.167E-04 9.756E-13 0.00E+00
7.943E+01 2.218E-04 2.218E-04 1.021E-12 0.00E+00
7.852E+01 2.271E-04 2.271E-04 1.068E-12 0.00E+00
7.762E+01 2.324E-04 2.324E-04 1.118E-12 0.00E+00
7.674E+01 2.379E-04 2.379E-04 1.170E-12 0.00E+00
7.586E+01 2.435E-04 2.435E-04 1.224E-12 0.00E+00
7.499E+01 2.492E-04 2.492E-04 1.281E-12 0.00E+00
7.413E+01 2.550E-04 2.550E-04 1.341E-12 0.00E+00
7.328E+01 2.609E-04 2.609E-04 1.403E-12 0.00E+00
7.244E+01 2.670E-04 2.670E-04 1.468E-12 0.00E+00
7.161E+01 2.732E-04 2.732E-04 1.536E-12 0.00E+00
7.079E+01 2.796E-04 2.796E-04 1.607E-12 0.00E+00
6.998E+01 2.861E-04 2.861E-04 1.681E-12 0.00E+00
6.918E+01 2.927E-04 2.927E-04 1.759E-12 0.00E+00
6.839E+01 2.994E-04 2.994E-04 1.840E-12 0.00E+00
6.761E+01 3.063E-04 3.063E-04 1.925E-12 0.00E+00
6.683E+01 3.133E-04 3.133E-04 2.014E-12 0.00E+00
6.607E+01 3.205E-04 3.205E-04 2.107E-12 0.00E+00
6.531E+01 3.278E-04 3.278E-04 2.204E-12 0.00E+00
6.457E+01 3.352E-04 3.352E-04 2.305E-12 0.00E+00
6.383E+01 3.428E-04 3.428E-04 2.411E-12 0.00E+00
6.310E+01 3.505E-04 3.505E-04 2.522E-12 0.00E+00
6.237E+01 3.584E-04 3.584E-04 2.638E-12 9.04E-06
6.166E+01 3.664E-04 3.664E-04 2.759E-12 8.80E-06
6.095E+01 3.746E-04 3.746E-04 2.885E-12 8.54E-06
6.026E+01 3.829E-04 3.829E-04 3.017E-12 8.27E-06
5.957E+01 3.913E-04 3.913E-04 3.155E-12 7.99E-06
5.888E+01 3.999E-04 3.999E-04 3.299E-12 7.68E-06
5.821E+01 4.086E-04 4.086E-04 3.450E-12 7.36E-06
5.754E+01 4.175E-04 4.175E-04 3.607E-12 7.02E-06
5.689E+01 4.265E-04 4.265E-04 3.771E-12 6.66E-06
5.623E+01 4.356E-04 4.356E-04 3.943E-12 6.29E-06
5.559E+01 4.449E-04 4.449E-04 4.122E-12 5.90E-06
5.495E+01 4.542E-04 4.542E-04 4.309E-12 5.50E-06
5.433E+01 4.637E-04 4.637E-04 4.504E-12 5.08E-06
5.370E+01 4.734E-04 4.734E-04 4.707E-12 4.66E-06
5.309E+01 4.831E-04 4.831E-04 4.920E-12 4.22E-06
5.248E+01 4.929E-04 4.929E-04 5.142E-12 3.77E-06
5.188E+01 5.029E-04 5.029E-04 5.373E-12 3.31E-06
5.129E+01 5.129E-04 5.129E-04 5.615E-12 2.83E-06
5.070E+01 5.230E-04 5.230E-04 5.867E-12 2.33E-06
5.012E+01 5.332E-04 5.332E-04 6.130E-12 1.83E-06
4.955E+01 5.435E-04 5.435E-04 6.404E-12 1.33E-06
4.898E+01 5.539E-04 5.539E-04 6.690E-12 8.33E-07
4.842E+01 5.643E-04 5.643E-04 6.989E-12 3.47E-07
4.786E+01 5.747E-04 5.747E-04 7.300E-12-1.32E-07
4.732E+01 5.852E-04 5.852E-04 7.625E-12-6.01E-07
4.677E+01 5.957E-04 5.957E-04 7.963E-12-1.06E-06
4.624E+01 6.062E-04 6.062E-04 8.316E-12-1.50E-06
4.571E+01 6.167E-04 6.167E-04 8.684E-12-1.93E-06
4.519E+01 6.272E-04 6.272E-04 9.067E-12-2.34E-06
4.467E+01 6.376E-04 6.376E-04 9.467E-12-2.69E-06
4.416E+01 6.480E-04 6.480E-04 9.883E-12-3.02E-06
4.365E+01 6.584E-04 6.584E-04 1.032E-11-3.34E-06
4.315E+01 6.686E-04 6.686E-04 1.077E-11-3.65E-06
4.266E+01 6.787E-04 6.787E-04 1.124E-11-3.94E-06
4.217E+01 6.887E-04 6.887E-04 1.173E-11-4.22E-06
4.169E+01 6.986E-04 6.986E-04 1.224E-11-4.48E-06
4.121E+01 7.083E-04 7.083E-04 1.278E-11-4.72E-06
4.074E+01 7.178E-04 7.178E-04 1.333E-11-4.97E-06
4.027E+01 7.271E-04 7.271E-04 1.391E-11-5.23E-06
3.981E+01 7.362E-04 7.362E-04 1.451E-11-5.48E-06
3.936E+01 7.451E-04 7.451E-04 1.514E-11-5.73E-06
3.890E+01 7.537E-04 7.537E-04 1.580E-11-5.97E-06
3.846E+01 7.620E-04 7.620E-04 1.648E-11-6.21E-06
3.802E+01 7.700E-04 7.700E-04 1.719E-11-6.45E-06
3.758E+01 7.777E-04 7.777E-04 1.793E-11-6.68E-06
3.715E+01 7.851E-04 7.851E-04 1.870E-11-6.90E-06
3.673E+01 7.922E-04 7.922E-04 1.951E-11-7.12E-06
3.631E+01 7.989E-04 7.989E-04 2.035E-11-7.34E-06
3.589E+01 8.052E-04 8.052E-04 2.122E-11-7.55E-06
3.548E+01 8.111E-04 8.111E-04 2.214E-11-7.76E-06
3.508E+01 8.166E-04 8.166E-04 2.309E-11-7.97E-06
3.467E+01 8.216E-04 8.216E-04 2.408E-11-8.16E-06
3.428E+01 8.263E-04 8.263E-04 2.511E-11-8.35E-06
3.388E+01 8.305E-04 8.305E-04 2.619E-11-8.54E-06
3.350E+01 8.342E-04 8.342E-04 2.732E-11-8.71E-06
3.311E+01 8.374E-04 8.374E-04 2.849E-11-8.86E-06
3.273E+01 8.402E-04 8.402E-04 2.971E-11-9.01E-06
3.236E+01 8.425E-04 8.425E-04 3.099E-11-9.15E-06
3.199E+01 8.443E-04 8.443E-04 3.233E-11-9.28E-06
3.162E+01 8.456E-04 8.456E-04 3.372E-11-9.40E-06
3.126E+01 8.465E-04 8.465E-04 3.518E-11-9.51E-06
3.090E+01 8.469E-04 8.469E-04 3.670E-11-9.61E-06
3.055E+01 8.469E-04 8.469E-04 3.829E-11-9.69E-06
3.020E+01 8.464E-04 8.464E-04 3.995E-11-9.77E-06
2.985E+01 8.455E-04 8.455E-04 4.168E-11-9.83E-06
2.951E+01 8.443E-04 8.443E-04 4.350E-11-9.89E-06
2.917E+01 8.426E-04 8.426E-04 4.539E-11-9.94E-06
2.884E+01 8.405E-04 8.405E-04 4.738E-11-9.98E-06
2.851E+01 8.381E-04 8.381E-04 4.945E-11-1.00E-05
2.818E+01 8.353E-04 8.353E-04 5.162E-11-1.00E-05
2.786E+01 8.321E-04 8.321E-04 5.389E-11-1.00E-05
2.754E+01 8.286E-04 8.286E-04 5.627E-11-1.00E-05
2.723E+01 8.248E-04 8.248E-04 5.875E-11-1.00E-05
2.692E+01 8.208E-04 8.208E-04 6.136E-11-9.99E-06
2.661E+01 8.164E-04 8.164E-04 6.408E-11-9.96E-06
2.630E+01 8.118E-04 8.118E-04 6.693E-11-9.90E-06
2.600E+01 8.070E-04 8.070E-04 6.992E-11-9.84E-06
2.570E+01 8.021E-04 8.021E-04 7.305E-11-9.75E-06
2.541E+01 7.969E-04 7.969E-04 7.632E-11-9.65E-06
2.512E+01 7.917E-04 7.917E-04 7.975E-11-9.53E-06
2.483E+01 7.865E-04 7.865E-04 8.333E-11-9.36E-06
2.455E+01 7.813E-04 7.813E-04 8.709E-11-9.13E-06
2.427E+01 7.763E-04 7.763E-04 9.102E-11-8.87E-06
2.399E+01 7.718E-04 7.718E-04 9.514E-11-8.70E-06
2.371E+01 7.684E-04 7.684E-04 9.946E-11-8.56E-06
2.344E+01 7.668E-04 7.668E-04 1.040E-10-8.43E-06
2.317E+01 7.653E-04 7.653E-04 1.087E-10-8.31E-06
2.291E+01 7.581E-04 7.581E-04 1.137E-10-8.19E-06
2.265E+01 7.479E-04 7.479E-04 1.189E-10-8.06E-06
2.239E+01 7.399E-04 7.399E-04 1.244E-10-7.93E-06
2.213E+01 7.353E-04 7.353E-04 1.301E-10-7.80E-06
2.188E+01 7.357E-04 7.357E-04 1.361E-10-7.65E-06
2.163E+01 7.439E-04 7.439E-04 1.424E-10-7.50E-06
2.138E+01 7.625E-04 7.625E-04 1.490E-10-7.34E-06
2.113E+01 7.653E-04 7.653E-04 1.559E-10-7.16E-06
2.089E+01 7.345E-04 7.345E-04 1.631E-10-6.98E-06
2.065E+01 7.087E-04 7.087E-04 1.707E-10-6.78E-06
2.042E+01 6.928E-04 6.928E-04 1.786E-10-6.56E-06
2.018E+01 6.821E-04 6.821E-04 1.869E-10-6.32E-06
1.995E+01 6.740E-04 6.740E-04 1.957E-10-6.05E-06
1.972E+01 6.672E-04 6.672E-04 2.048E-10-5.72E-06
1.950E+01 6.613E-04 6.613E-04 2.143E-10-5.40E-06
1.928E+01 6.560E-04 6.560E-04 2.243E-10-5.11E-06
1.905E+01 6.516E-04 6.516E-04 2.348E-10-4.84E-06
1.884E+01 6.488E-04 6.488E-04 2.458E-10-4.59E-06
1.862E+01 6.505E-04 6.505E-04 2.574E-10-4.35E-06
1.841E+01 6.714E-04 6.714E-04 2.695E-10-4.10E-06
1.820E+01 6.941E-04 6.941E-04 2.821E-10-3.86E-06
1.799E+01 6.457E-04 6.457E-04 2.954E-10-3.62E-06
1.778E+01 6.295E-04 6.295E-04 3.093E-10-3.37E-06
1.758E+01 6.221E-04 6.221E-04 3.239E-10-3.12E-06
1.738E+01 6.174E-04 6.174E-04 3.391E-10-2.87E-06
1.718E+01 6.139E-04 6.139E-04 3.551E-10-2.62E-06
1.698E+01 6.116E-04 6.116E-04 3.719E-10-2.35E-06
1.679E+01 6.113E-04 6.113E-04 3.894E-10-2.09E-06
1.660E+01 6.200E-04 6.200E-04 4.078E-10-1.82E-06
1.641E+01 7.106E-04 7.106E-04 4.271E-10-1.55E-06
1.622E+01 6.177E-04 6.177E-04 4.472E-10-1.28E-06
1.603E+01 6.034E-04 6.034E-04 4.684E-10-9.97E-07
1.585E+01 5.995E-04 5.995E-04 4.905E-10-7.20E-07
1.567E+01 5.975E-04 5.975E-04 5.137E-10-4.51E-07
1.549E+01 5.963E-04 5.963E-04 5.380E-10-1.85E-07
1.531E+01 5.956E-04 5.956E-04 5.635E-10 8.08E-08
1.514E+01 5.953E-04 5.953E-04 5.902E-10 3.45E-07
1.496E+01 5.953E-04 5.953E-04 6.182E-10 6.19E-07
1.479E+01 5.955E-04 5.955E-04 6.475E-10 8.97E-07
1.462E+01 5.964E-04 5.964E-04 6.782E-10 1.18E-06
1.445E+01 5.978E-04 5.978E-04 7.103E-10 1.47E-06
1.429E+01 5.996E-04 5.996E-04 7.440E-10 1.76E-06
1.413E+01 6.017E-04 6.017E-04 7.792E-10 2.07E-06
1.396E+01 6.043E-04 6.043E-04 8.161E-10 2.38E-06
1.380E+01 6.075E-04 6.075E-04 8.548E-10 2.70E-06
1.365E+01 6.113E-04 6.113E-04 8.952E-10 3.04E-06
1.349E+01 6.160E-04 6.160E-04 9.376E-10 3.38E-06
1.334E+01 6.216E-04 6.216E-04 9.821E-10 3.74E-06
1.318E+01 6.289E-04 6.289E-04 1.029E-09 4.11E-06
1.303E+01 6.385E-04 6.385E-04 1.077E-09 4.50E-06
1.288E+01 6.500E-04 6.500E-04 1.128E-09 4.90E-06
1.274E+01 6.597E-04 6.597E-04 1.182E-09 5.31E-06
1.259E+01 6.633E-04 6.633E-04 1.238E-09 5.75E-06
1.245E+01 6.630E-04 6.630E-04 1.296E-09 6.23E-06
1.230E+01 6.640E-04 6.640E-04 1.358E-09 6.72E-06
1.216E+01 6.696E-04 6.696E-04 1.422E-09 7.19E-06
1.202E+01 6.844E-04 6.844E-04 1.489E-09 7.63E-06
1.189E+01 7.026E-04 7.026E-04 1.562E-09 8.07E-06
1.175E+01 6.993E-04 6.993E-04 1.639E-09 8.52E-06
1.161E+01 7.103E-04 7.103E-04 1.724E-09 8.96E-06
1.148E+01 8.395E-04 8.395E-04 1.754E-09 9.38E-06
1.135E+01 8.200E-04 8.200E-04 1.864E-09 9.84E-06
1.122E+01 8.121E-04 8.121E-04 1.956E-09 1.03E-05
1.109E+01 7.677E-04 7.677E-04 2.051E-09 1.08E-05
1.096E+01 7.468E-04 7.468E-04 2.149E-09 1.12E-05
1.084E+01 7.415E-04 7.415E-04 2.252E-09 1.17E-05
1.072E+01 7.436E-04 7.436E-04 2.359E-09 1.22E-05
1.059E+01 7.497E-04 7.497E-04 2.470E-09 1.27E-05
1.047E+01 7.584E-04 7.584E-04 2.587E-09 1.32E-05
1.035E+01 7.683E-04 7.683E-04 2.708E-09 1.37E-05
1.023E+01 7.789E-04 7.789E-04 2.836E-09 1.42E-05
1.012E+01 7.904E-04 7.904E-04 2.970E-09 1.48E-05
1.000E+01 8.028E-04 8.028E-04 3.110E-09 1.53E-05
9.886E+00 8.164E-04 8.164E-04 3.257E-09 1.58E-05
9.772E+00 8.311E-04 8.311E-04 3.411E-09 1.64E-05
9.661E+00 8.471E-04 8.471E-04 3.572E-09 1.69E-05
9.550E+00 8.647E-04 8.647E-04 3.740E-09 1.75E-05
